#  i    Total    Potential    Kinetic    Temperature   Pressure
   0  -2.00514   -4.25514       2.25        1.5   0.0614852
   1  -2.00498   -4.25498       2.25        1.5   0.0629596
   2  -2.00422   -4.25422       2.25        1.5   0.0657787
   3  -2.00284   -4.25284       2.25        1.5   0.0698678
   4  -2.00086   -4.25086       2.25        1.5   0.0756171
   5  -1.99826   -4.24826       2.25        1.5   0.0824501
   6  -1.99504   -4.24504       2.25        1.5   0.0909138
   7   -1.9912    -4.2412       2.25        1.5   0.100744
   8  -1.98672   -4.23672       2.25        1.5   0.111948
   9  -1.98162   -4.23162       2.25        1.5   0.124572
  10  -1.97586   -4.22586       2.25        1.5   0.138586
  11  -1.96946   -4.21946       2.25        1.5   0.154077
  12   -1.9624    -4.2124       2.25        1.5   0.171015
  13  -1.95468   -4.20468       2.25        1.5   0.189369
  14  -1.94628   -4.19628       2.25        1.5   0.209305
  15  -1.93721   -4.18721       2.25        1.5   0.230638
  16  -1.92744   -4.17744       2.25        1.5   0.253417
  17  -1.91697   -4.16697       2.25        1.5   0.277651
  18  -1.90579   -4.15579       2.25        1.5    0.30358
  19  -1.89389   -4.14389       2.25        1.5   0.330978
  20  -1.88127   -4.13127       2.25        1.5   0.359852
  21  -1.86792   -4.11792       2.25        1.5    0.39005
  22  -1.85383   -4.10383       2.25        1.5   0.422077
  23    -1.839     -4.089       2.25        1.5   0.455429
  24  -1.82342   -4.07342       2.25        1.5   0.490374
  25  -1.80708   -4.05708       2.25        1.5   0.526751
  26     -1.79      -4.04       2.25        1.5   0.564511
  27  -1.77216   -4.02216       2.25        1.5   0.603988
  28  -1.75358   -4.00358       2.25        1.5   0.644815
  29  -1.73425   -3.98425       2.25        1.5   0.686965
  30  -1.71419   -3.96419       2.25        1.5   0.730564
  31  -1.69341   -3.94341       2.25        1.5   0.775614
  32  -1.67193   -3.92193       2.25        1.5   0.821877
  33  -1.64976   -3.89976       2.25        1.5   0.869689
  34  -1.62693   -3.87693       2.25        1.5   0.918644
  35  -1.60347   -3.85347       2.25        1.5   0.968558
  36   -1.5794    -3.8294       2.25        1.5    1.01966
  37  -1.55477   -3.80477       2.25        1.5    1.07172
  38  -1.52962   -3.77962       2.25        1.5    1.12475
  39    -1.504     -3.754       2.25        1.5     1.1785
  40  -1.47795   -3.72795       2.25        1.5    1.23305
  41  -1.45153   -3.70153       2.25        1.5    1.28808
  42  -1.42482   -3.67482       2.25        1.5    1.34342
  43  -1.39787   -3.64787       2.25        1.5    1.39912
  44  -1.37075   -3.62075       2.25        1.5    1.45504
  45  -1.34354   -3.59354       2.25        1.5    1.51098
  46  -1.31633   -3.56633       2.25        1.5    1.56679
  47  -1.28919   -3.53919       2.25        1.5    1.62228
  48  -1.26221   -3.51221       2.25        1.5    1.67704
  49  -1.23546   -3.48546       2.25        1.5    1.73138
  50  -1.20905   -3.45905       2.25        1.5    1.78474
  51  -1.18304   -3.43304       2.25        1.5    1.83697
  52  -1.15752   -3.40752       2.25        1.5    1.88808
  53  -1.13258   -3.38258       2.25        1.5    1.93788
  54  -1.10828   -3.35828       2.25        1.5    1.98613
  55  -1.08471   -3.33471       2.25        1.5    2.03265
  56  -1.06192   -3.31192       2.25        1.5    2.07735
  57  -1.03998   -3.28998       2.25        1.5     2.1201
  58  -1.01894   -3.26894       2.25        1.5    2.16102
  59  -0.998851   -3.24885       2.25        1.5    2.19983
  60  -0.979744   -3.22974       2.25        1.5    2.23641
  61  -0.961654   -3.21165       2.25        1.5    2.27077
  62  -0.944602    -3.1946       2.25        1.5    2.30281
  63  -0.928604    -3.1786       2.25        1.5     2.3325
  64  -0.913668   -3.16367       2.25        1.5    2.35972
  65  -0.899795   -3.14979       2.25        1.5    2.38474
  66  -0.886982   -3.13698       2.25        1.5    2.40723
  67  -0.875218   -3.12522       2.25        1.5    2.42729
  68  -0.864491   -3.11449       2.25        1.5    2.44524
  69  -0.85478   -3.10478       2.25        1.5    2.46073
  70  -0.846061   -3.09606       2.25        1.5    2.47393
  71  -0.838312   -3.08831       2.25        1.5    2.48498
  72  -0.831504    -3.0815       2.25        1.5    2.49391
  73  -0.825605    -3.0756       2.25        1.5    2.50071
  74  -0.820584   -3.07058       2.25        1.5    2.50535
  75  -0.816411   -3.06641       2.25        1.5    2.50821
  76  -0.813051   -3.06305       2.25        1.5    2.50901
  77  -0.810472   -3.06047       2.25        1.5    2.50816
  78  -0.808638   -3.05864       2.25        1.5    2.50544
  79  -0.807518   -3.05752       2.25        1.5    2.50105
  80  -0.807077   -3.05708       2.25        1.5    2.49516
  81  -0.807281   -3.05728       2.25        1.5    2.48753
  82  -0.808097    -3.0581       2.25        1.5    2.47835
  83  -0.809489   -3.05949       2.25        1.5    2.46785
  84  -0.811421   -3.06142       2.25        1.5    2.45614
  85  -0.813856   -3.06386       2.25        1.5    2.44324
  86  -0.816756   -3.06676       2.25        1.5    2.42902
  87  -0.82008   -3.07008       2.25        1.5    2.41378
  88  -0.823786   -3.07379       2.25        1.5     2.3976
  89  -0.827831   -3.07783       2.25        1.5    2.38053
  90  -0.832171   -3.08217       2.25        1.5    2.36263
  91  -0.836759   -3.08676       2.25        1.5    2.34392
  92  -0.841548   -3.09155       2.25        1.5    2.32472
  93  -0.846491   -3.09649       2.25        1.5    2.30503
  94  -0.851538   -3.10154       2.25        1.5    2.28482
  95  -0.856642   -3.10664       2.25        1.5    2.26427
  96  -0.861754   -3.11175       2.25        1.5    2.24371
  97  -0.866828   -3.11683       2.25        1.5      2.223
  98  -0.871822   -3.12182       2.25        1.5    2.20219
  99  -0.876692   -3.12669       2.25        1.5    2.18148
 100  -0.881402    -3.1314       2.25        1.5    2.16088
 101  -0.885916   -3.13592       2.25        1.5    2.14037
 102  -0.890205    -3.1402       2.25        1.5    2.12044
 103  -0.894243   -3.14424       2.25        1.5    2.10061
 104  -0.898009   -3.14801       2.25        1.5    2.08124
 105  -0.901487   -3.15149       2.25        1.5     2.0622
 106  -0.904663   -3.15466       2.25        1.5    2.04372
 107  -0.907531   -3.15753       2.25        1.5    2.02554
 108  -0.910091   -3.16009       2.25        1.5    2.00804
 109  -0.912342   -3.16234       2.25        1.5    1.99093
 110  -0.914291   -3.16429       2.25        1.5    1.97425
 111  -0.915947   -3.16595       2.25        1.5    1.95811
 112  -0.917324   -3.16732       2.25        1.5    1.94238
 113  -0.918439   -3.16844       2.25        1.5     1.9269
 114  -0.91931   -3.16931       2.25        1.5    1.91209
 115  -0.919959   -3.16996       2.25        1.5    1.89748
 116  -0.920408   -3.17041       2.25        1.5    1.88345
 117  -0.920684   -3.17068       2.25        1.5    1.86948
 118  -0.920809   -3.17081       2.25        1.5    1.85589
 119  -0.920811   -3.17081       2.25        1.5    1.84255
 120  -0.920718   -3.17072       2.25        1.5    1.82912
 121  -0.920552   -3.17055       2.25        1.5     1.8158
 122  -0.920339   -3.17034       2.25        1.5    1.80256
 123   -0.9201    -3.1701       2.25        1.5    1.78927
 124  -0.919859   -3.16986       2.25        1.5    1.77613
 125  -0.919635   -3.16964       2.25        1.5    1.76296
 126  -0.919445   -3.16945       2.25        1.5    1.74981
 127  -0.919304    -3.1693       2.25        1.5    1.73633
 128  -0.919223   -3.16922       2.25        1.5     1.7229
 129  -0.919213   -3.16921       2.25        1.5    1.70943
 130  -0.919282   -3.16928       2.25        1.5    1.69572
 131  -0.919432   -3.16943       2.25        1.5     1.6819
 132  -0.919665   -3.16967       2.25        1.5    1.66802
 133  -0.91998   -3.16998       2.25        1.5    1.65386
 134  -0.920372   -3.17037       2.25        1.5    1.63965
 135  -0.920835   -3.17083       2.25        1.5    1.62541
 136  -0.921361   -3.17136       2.25        1.5      1.611
 137  -0.921941   -3.17194       2.25        1.5    1.59631
 138  -0.922563   -3.17256       2.25        1.5    1.58173
 139  -0.923216   -3.17322       2.25        1.5    1.56719
 140  -0.923887   -3.17389       2.25        1.5    1.55249
 141  -0.924564   -3.17456       2.25        1.5      1.538
 142  -0.925231   -3.17523       2.25        1.5    1.52347
 143  -0.925875   -3.17588       2.25        1.5    1.50894
 144  -0.926483   -3.17648       2.25        1.5    1.49473
 145  -0.927043   -3.17704       2.25        1.5    1.48064
 146  -0.927541   -3.17754       2.25        1.5    1.46642
 147  -0.927968   -3.17797       2.25        1.5    1.45263
 148  -0.928313   -3.17831       2.25        1.5    1.43898
 149  -0.928564   -3.17856       2.25        1.5    1.42549
 150  -0.928713   -3.17871       2.25        1.5    1.41217
 151  -0.928754   -3.17875       2.25        1.5    1.39897
 152  -0.928679   -3.17868       2.25        1.5    1.38616
 153  -0.928486   -3.17849       2.25        1.5    1.37352
 154  -0.92817   -3.17817       2.25        1.5    1.36099
 155  -0.927729   -3.17773       2.25        1.5    1.34882
 156  -0.927162   -3.17716       2.25        1.5    1.33696
 157  -0.92647   -3.17647       2.25        1.5    1.32539
 158  -0.925656   -3.17566       2.25        1.5    1.31411
 159  -0.924723   -3.17472       2.25        1.5    1.30308
 160  -0.923676   -3.17368       2.25        1.5    1.29233
 161  -0.922519   -3.17252       2.25        1.5     1.2817
 162  -0.921261   -3.17126       2.25        1.5    1.27124
 163  -0.919911   -3.16991       2.25        1.5    1.26105
 164  -0.918476   -3.16848       2.25        1.5    1.25109
 165  -0.916969   -3.16697       2.25        1.5    1.24125
 166  -0.915402    -3.1654       2.25        1.5    1.23178
 167  -0.913785   -3.16379       2.25        1.5    1.22224
 168  -0.912132   -3.16213       2.25        1.5    1.21265
 169  -0.910454   -3.16045       2.25        1.5    1.20324
 170  -0.908763   -3.15876       2.25        1.5    1.19386
 171  -0.907072   -3.15707       2.25        1.5    1.18454
 172  -0.90539   -3.15539       2.25        1.5    1.17508
 173  -0.90373   -3.15373       2.25        1.5    1.16574
 174  -0.902101    -3.1521       2.25        1.5    1.15633
 175  -0.900512   -3.15051       2.25        1.5    1.14707
 176  -0.89897   -3.14897       2.25        1.5    1.13765
 177  -0.897479   -3.14748       2.25        1.5    1.12797
 178  -0.896046   -3.14605       2.25        1.5    1.11841
 179  -0.894673   -3.14467       2.25        1.5     1.1087
 180  -0.893363   -3.14336       2.25        1.5    1.09909
 181  -0.892117   -3.14212       2.25        1.5    1.08917
 182  -0.890936   -3.14094       2.25        1.5     1.0794
 183  -0.88982   -3.13982       2.25        1.5     1.0693
 184  -0.888771   -3.13877       2.25        1.5    1.05943
 185  -0.887786   -3.13779       2.25        1.5    1.04943
 186  -0.886866   -3.13687       2.25        1.5    1.03923
 187  -0.88601   -3.13601       2.25        1.5    1.02902
 188  -0.885216   -3.13522       2.25        1.5    1.01873
 189  -0.884485   -3.13448       2.25        1.5     1.0084
 190  -0.883817   -3.13382       2.25        1.5   0.998029
 191  -0.883214   -3.13321       2.25        1.5   0.987494
 192  -0.882678   -3.13268       2.25        1.5   0.976952
 193  -0.88221   -3.13221       2.25        1.5   0.966013
 194  -0.881811   -3.13181       2.25        1.5   0.954947
 195  -0.881484   -3.13148       2.25        1.5   0.943867
 196  -0.881231   -3.13123       2.25        1.5   0.932654
 197  -0.881052   -3.13105       2.25        1.5    0.92154
 198  -0.880951   -3.13095       2.25        1.5   0.910214
 199  -0.880926   -3.13093       2.25        1.5     0.8986
 200  -0.880977   -3.13098       2.25        1.5   0.887282
 201  -0.881104    -3.1311       2.25        1.5   0.875877
 202   -0.8813    -3.1313       2.25        1.5   0.864124
 203  -0.881562   -3.13156       2.25        1.5    0.85242
 204  -0.881883   -3.13188       2.25        1.5     0.8407
 205  -0.882256   -3.13226       2.25        1.5   0.829056
 206  -0.882671   -3.13267       2.25        1.5   0.817157
 207  -0.883119   -3.13312       2.25        1.5   0.805449
 208  -0.883589   -3.13359       2.25        1.5   0.793603
 209  -0.884071   -3.13407       2.25        1.5    0.78195
 210  -0.884554   -3.13455       2.25        1.5   0.770162
 211  -0.885026   -3.13503       2.25        1.5   0.758496
 212  -0.885474   -3.13547       2.25        1.5   0.746819
 213  -0.885886   -3.13589       2.25        1.5   0.735309
 214  -0.88625   -3.13625       2.25        1.5   0.723911
 215  -0.886557   -3.13656       2.25        1.5   0.712837
 216  -0.886794   -3.13679       2.25        1.5    0.70207
 217  -0.886953   -3.13695       2.25        1.5   0.691513
 218  -0.887025   -3.13703       2.25        1.5   0.681335
 219  -0.887002     -3.137       2.25        1.5   0.671245
 220  -0.886875   -3.13687       2.25        1.5   0.661335
 221  -0.886637   -3.13664       2.25        1.5   0.651734
 222  -0.886283   -3.13628       2.25        1.5   0.642182
 223  -0.885807   -3.13581       2.25        1.5   0.632961
 224  -0.885205   -3.13521       2.25        1.5   0.624312
 225  -0.884474   -3.13447       2.25        1.5   0.615699
 226  -0.883611   -3.13361       2.25        1.5   0.607476
 227  -0.882613   -3.13261       2.25        1.5   0.599725
 228  -0.88148   -3.13148       2.25        1.5   0.592179
 229  -0.880209   -3.13021       2.25        1.5   0.584917
 230  -0.878802    -3.1288       2.25        1.5   0.578015
 231  -0.87726   -3.12726       2.25        1.5    0.57155
 232  -0.875583   -3.12558       2.25        1.5   0.565288
 233  -0.873774   -3.12377       2.25        1.5   0.559303
 234  -0.871834   -3.12183       2.25        1.5   0.553706
 235  -0.869769   -3.11977       2.25        1.5   0.548413
 236  -0.86758   -3.11758       2.25        1.5   0.543418
 237  -0.865272   -3.11527       2.25        1.5   0.538637
 238  -0.862849   -3.11285       2.25        1.5   0.534137
 239  -0.860317   -3.11032       2.25        1.5   0.529833
 240  -0.85768   -3.10768       2.25        1.5   0.525908
 241  -0.854944   -3.10494       2.25        1.5   0.522196
 242  -0.852116   -3.10212       2.25        1.5   0.518686
 243  -0.849199    -3.0992       2.25        1.5   0.515368
 244  -0.846202    -3.0962       2.25        1.5   0.512268
 245  -0.843129   -3.09313       2.25        1.5   0.509605
 246  -0.839988   -3.08999       2.25        1.5   0.506789
 247  -0.836785   -3.08679       2.25        1.5   0.504423
 248  -0.833528   -3.08353       2.25        1.5   0.502186
 249  -0.830223   -3.08022       2.25        1.5   0.500143
 250  -0.826876   -3.07688       2.25        1.5   0.498281
 251  -0.823493   -3.07349       2.25        1.5   0.496549
 252  -0.820081   -3.07008       2.25        1.5   0.494896
 253  -0.816646   -3.06665       2.25        1.5   0.493388
 254  -0.813194   -3.06319       2.25        1.5    0.49205
 255  -0.809731   -3.05973       2.25        1.5   0.490599
 256  -0.806264   -3.05626       2.25        1.5    0.48914
 257  -0.802798    -3.0528       2.25        1.5   0.487932
 258  -0.799339   -3.04934       2.25        1.5   0.486615
 259  -0.795893   -3.04589       2.25        1.5   0.485449
 260  -0.792464   -3.04246       2.25        1.5   0.484345
 261  -0.789059   -3.03906       2.25        1.5   0.483139
 262  -0.785683   -3.03568       2.25        1.5   0.481898
 263  -0.78234   -3.03234       2.25        1.5   0.480687
 264  -0.779037   -3.02904       2.25        1.5   0.479653
 265  -0.775777   -3.02578       2.25        1.5   0.478128
 266  -0.772565   -3.02257       2.25        1.5   0.476839
 267  -0.769405    -3.0194       2.25        1.5   0.475548
 268  -0.766298    -3.0163       2.25        1.5   0.474248
 269  -0.763247   -3.01325       2.25        1.5   0.472856
 270  -0.760255   -3.01025       2.25        1.5   0.471523
 271  -0.757322   -3.00732       2.25        1.5   0.469937
 272  -0.754449   -3.00445       2.25        1.5   0.468292
 273  -0.751634   -3.00163       2.25        1.5   0.466666
 274  -0.748875   -2.99888       2.25        1.5   0.464831
 275  -0.746168   -2.99617       2.25        1.5   0.463102
 276  -0.743505   -2.99351       2.25        1.5   0.461374
 277  -0.740882   -2.99088       2.25        1.5     0.4595
 278  -0.738292   -2.98829       2.25        1.5   0.457688
 279  -0.735724   -2.98572       2.25        1.5   0.455913
 280  -0.73317   -2.98317       2.25        1.5   0.454151
 281  -0.730619   -2.98062       2.25        1.5   0.452498
 282  -0.72806   -2.97806       2.25        1.5   0.450778
 283  -0.725483   -2.97548       2.25        1.5   0.449008
 284  -0.722879   -2.97288       2.25        1.5   0.447592
 285  -0.720237   -2.97024       2.25        1.5   0.446238
 286  -0.717546   -2.96755       2.25        1.5   0.444885
 287  -0.714798    -2.9648       2.25        1.5   0.443586
 288  -0.711986   -2.96199       2.25        1.5   0.442391
 289  -0.709102    -2.9591       2.25        1.5   0.441619
 290  -0.706143   -2.95614       2.25        1.5   0.440967
 291  -0.703106   -2.95311       2.25        1.5   0.440324
 292  -0.69999   -2.94999       2.25        1.5   0.440075
 293  -0.696797    -2.9468       2.25        1.5   0.439752
 294  -0.693529   -2.94353       2.25        1.5   0.439659
 295  -0.690191   -2.94019       2.25        1.5   0.439629
 296  -0.686793   -2.93679       2.25        1.5   0.439801
 297  -0.683343   -2.93334       2.25        1.5   0.439886
 298  -0.679855   -2.92986       2.25        1.5   0.440325
 299  -0.676344   -2.92634       2.25        1.5    0.44055
 300  -0.672823   -2.92282       2.25        1.5   0.440882
 301  -0.669311   -2.91931       2.25        1.5   0.441329
 302  -0.665825   -2.91582       2.25        1.5   0.441588
 303  -0.662383   -2.91238       2.25        1.5    0.44182
 304  -0.659002     -2.909       2.25        1.5   0.441915
 305   -0.6557    -2.9057       2.25        1.5   0.442035
 306  -0.652495    -2.9025       2.25        1.5   0.442071
 307  -0.649404    -2.8994       2.25        1.5   0.441685
 308  -0.646439   -2.89644       2.25        1.5   0.441278
 309  -0.643614   -2.89361       2.25        1.5   0.440518
 310  -0.640938   -2.89094       2.25        1.5   0.439658
 311  -0.63842   -2.88842       2.25        1.5   0.438416
 312  -0.636063   -2.88606       2.25        1.5   0.436937
 313  -0.633867   -2.88387       2.25        1.5   0.435299
 314  -0.631832   -2.88183       2.25        1.5   0.433349
 315  -0.629953   -2.87995       2.25        1.5   0.431134
 316  -0.62822   -2.87822       2.25        1.5    0.42867
 317  -0.626626   -2.87663       2.25        1.5   0.426126
 318  -0.625158   -2.87516       2.25        1.5    0.42314
 319   -0.6238    -2.8738       2.25        1.5   0.419928
 320  -0.622539   -2.87254       2.25        1.5   0.416596
 321  -0.621358   -2.87136       2.25        1.5   0.413095
 322  -0.62024   -2.87024       2.25        1.5   0.409725
 323  -0.61917   -2.86917       2.25        1.5   0.406129
 324  -0.618131   -2.86813       2.25        1.5   0.402221
 325  -0.617105   -2.86711       2.25        1.5   0.398263
 326  -0.616078   -2.86608       2.25        1.5   0.394669
 327  -0.615035   -2.86503       2.25        1.5   0.391116
 328  -0.613964   -2.86396       2.25        1.5   0.387434
 329  -0.612854   -2.86285       2.25        1.5   0.383875
 330  -0.611694   -2.86169       2.25        1.5   0.380536
 331  -0.610476   -2.86048       2.25        1.5    0.37716
 332  -0.609192   -2.85919       2.25        1.5   0.373915
